# E[keV], Quenching[1]
3.000000e-01, 0.000000e+00
3.010000e-01, 1.774930e-03
3.020060e-01, 3.529160e-03
3.030190e-01, 5.262140e-03
3.040390e-01, 6.973520e-03
3.050650e-01, 8.662960e-03
3.060990e-01, 1.033010e-02
3.071390e-01, 1.197470e-02
3.081860e-01, 1.359650e-02
3.092400e-01, 1.519510e-02
3.103010e-01, 1.677050e-02
3.113700e-01, 1.832220e-02
3.124450e-01, 1.985020e-02
3.135280e-01, 2.135430e-02
3.146170e-01, 2.283430e-02
3.157140e-01, 2.429000e-02
3.168190e-01, 2.572140e-02
3.179300e-01, 2.712830e-02
3.190500e-01, 2.851080e-02
3.201760e-01, 2.986860e-02
3.213100e-01, 3.120170e-02
3.224520e-01, 3.251020e-02
3.236010e-01, 3.379400e-02
3.247580e-01, 3.505300e-02
3.259230e-01, 3.628740e-02
3.270950e-01, 3.749710e-02
3.282750e-01, 3.868230e-02
3.294630e-01, 3.984290e-02
3.306590e-01, 4.097900e-02
3.318630e-01, 4.209070e-02
3.330750e-01, 4.317820e-02
3.342950e-01, 4.424150e-02
3.355230e-01, 4.528080e-02
3.367600e-01, 4.629620e-02
3.380040e-01, 4.728780e-02
3.392570e-01, 4.825590e-02
3.405180e-01, 4.920060e-02
3.417880e-01, 5.012210e-02
3.430660e-01, 5.102060e-02
3.443530e-01, 5.189620e-02
3.456480e-01, 5.274930e-02
3.469520e-01, 5.358000e-02
3.482640e-01, 5.438860e-02
3.495860e-01, 5.517530e-02
3.509160e-01, 5.594040e-02
3.522550e-01, 5.668410e-02
3.536030e-01, 5.740670e-02
3.549590e-01, 5.810850e-02
3.563250e-01, 5.878970e-02
3.577000e-01, 5.945070e-02
3.590840e-01, 6.009170e-02
3.604780e-01, 6.071300e-02
3.618800e-01, 6.131500e-02
3.632920e-01, 6.189790e-02
3.647140e-01, 6.246220e-02
3.661450e-01, 6.300800e-02
3.675850e-01, 6.353580e-02
3.690350e-01, 6.404580e-02
3.704950e-01, 6.453840e-02
3.719640e-01, 6.501400e-02
3.734430e-01, 6.547280e-02
3.749330e-01, 6.591530e-02
3.764320e-01, 6.634170e-02
3.779400e-01, 6.675250e-02
3.794600e-01, 6.714800e-02
3.809890e-01, 6.752850e-02
3.825280e-01, 6.789440e-02
3.840780e-01, 6.824620e-02
3.856380e-01, 6.858410e-02
3.872080e-01, 6.890850e-02
3.887890e-01, 6.921980e-02
3.903800e-01, 6.951840e-02
3.919820e-01, 6.980460e-02
3.935950e-01, 7.007890e-02
3.952180e-01, 7.034160e-02
3.968520e-01, 7.059310e-02
3.984970e-01, 7.083370e-02
4.001530e-01, 7.106390e-02
4.018200e-01, 7.128410e-02
4.034980e-01, 7.149470e-02
4.051880e-01, 7.169590e-02
4.068880e-01, 7.188830e-02
4.086000e-01, 7.207230e-02
4.103240e-01, 7.224810e-02
4.120580e-01, 7.241630e-02
4.138050e-01, 7.257720e-02
4.155630e-01, 7.273130e-02
4.173330e-01, 7.287890e-02
4.191140e-01, 7.302040e-02
4.209080e-01, 7.315630e-02
4.227130e-01, 7.328700e-02
4.245300e-01, 7.341280e-02
4.263600e-01, 7.353430e-02
4.282020e-01, 7.365180e-02
4.300560e-01, 7.376570e-02
4.319220e-01, 7.387650e-02
4.338010e-01, 7.398470e-02
4.356920e-01, 7.409060e-02
4.375960e-01, 7.419470e-02
4.395120e-01, 7.429740e-02
4.414420e-01, 7.439920e-02
4.433840e-01, 7.450060e-02
4.453390e-01, 7.460200e-02
4.473070e-01, 7.470380e-02
4.492890e-01, 7.480660e-02
4.512830e-01, 7.491090e-02
4.532910e-01, 7.501700e-02
4.553120e-01, 7.512560e-02
4.573470e-01, 7.523700e-02
4.593950e-01, 7.535180e-02
4.614570e-01, 7.547020e-02
4.635330e-01, 7.559270e-02
4.656220e-01, 7.571960e-02
4.677250e-01, 7.585110e-02
4.698430e-01, 7.598740e-02
4.719740e-01, 7.612870e-02
4.741200e-01, 7.627530e-02
4.762800e-01, 7.642720e-02
4.784540e-01, 7.658450e-02
4.806430e-01, 7.674740e-02
4.828470e-01, 7.691590e-02
4.850650e-01, 7.709000e-02
4.872980e-01, 7.726980e-02
4.895450e-01, 7.745510e-02
4.918080e-01, 7.764610e-02
4.940860e-01, 7.784260e-02
4.963790e-01, 7.804450e-02
4.986870e-01, 7.825190e-02
5.010110e-01, 7.846460e-02
5.033500e-01, 7.868250e-02
5.057050e-01, 7.890540e-02
5.080760e-01, 7.913330e-02
5.104620e-01, 7.936600e-02
5.128640e-01, 7.960340e-02
5.152820e-01, 7.984530e-02
5.177170e-01, 8.009150e-02
5.201670e-01, 8.034200e-02
5.226340e-01, 8.059640e-02
5.251170e-01, 8.085470e-02
5.276170e-01, 8.111670e-02
5.301340e-01, 8.138220e-02
5.326670e-01, 8.165100e-02
5.352170e-01, 8.192290e-02
5.377840e-01, 8.219780e-02
5.403680e-01, 8.247560e-02
5.429700e-01, 8.275590e-02
5.455890e-01, 8.303870e-02
5.482250e-01, 8.332380e-02
5.508790e-01, 8.361110e-02
5.535500e-01, 8.390020e-02
5.562400e-01, 8.419120e-02
5.589470e-01, 8.448390e-02
5.616720e-01, 8.477800e-02
5.644160e-01, 8.507350e-02
5.671770e-01, 8.537030e-02
5.699570e-01, 8.566810e-02
5.727560e-01, 8.596690e-02
5.755730e-01, 8.626660e-02
5.784100e-01, 8.656690e-02
5.812640e-01, 8.686800e-02
5.841390e-01, 8.716950e-02
5.870320e-01, 8.747150e-02
5.899440e-01, 8.777380e-02
5.928760e-01, 8.807640e-02
5.958270e-01, 8.837920e-02
5.987980e-01, 8.868210e-02
6.017890e-01, 8.898510e-02
6.048000e-01, 8.928810e-02
6.078310e-01, 8.959110e-02
6.108820e-01, 8.989390e-02
6.139530e-01, 9.019670e-02
6.170450e-01, 9.049930e-02
6.201580e-01, 9.080180e-02
6.232910e-01, 9.110400e-02
6.264450e-01, 9.140600e-02
6.296200e-01, 9.170780e-02
6.328160e-01, 9.200940e-02
6.360340e-01, 9.231070e-02
6.392730e-01, 9.261180e-02
6.425340e-01, 9.291270e-02
6.458160e-01, 9.321340e-02
6.491200e-01, 9.351380e-02
6.524460e-01, 9.381400e-02
6.557950e-01, 9.411410e-02
6.591650e-01, 9.441390e-02
6.625590e-01, 9.471360e-02
6.659740e-01, 9.501320e-02
6.694130e-01, 9.531260e-02
6.728740e-01, 9.561190e-02
6.763590e-01, 9.591110e-02
6.798670e-01, 9.621030e-02
6.833980e-01, 9.650940e-02
6.869520e-01, 9.680850e-02
6.905310e-01, 9.710750e-02
6.941330e-01, 9.740660e-02
6.977590e-01, 9.770580e-02
7.014090e-01, 9.800490e-02
7.050840e-01, 9.830420e-02
7.087830e-01, 9.860350e-02
7.125070e-01, 9.890290e-02
7.162560e-01, 9.920250e-02
7.200290e-01, 9.950220e-02
7.238280e-01, 9.980200e-02
7.276520e-01, 1.001020e-01
7.315020e-01, 1.004020e-01
7.353770e-01, 1.007030e-01
7.392780e-01, 1.010030e-01
7.432050e-01, 1.013040e-01
7.471580e-01, 1.016050e-01
7.511380e-01, 1.019060e-01
7.551440e-01, 1.022080e-01
7.591770e-01, 1.025100e-01
7.632360e-01, 1.028120e-01
7.673230e-01, 1.031140e-01
7.714370e-01, 1.034160e-01
7.755780e-01, 1.037190e-01
7.797470e-01, 1.040220e-01
7.839440e-01, 1.043260e-01
7.881690e-01, 1.046300e-01
7.924220e-01, 1.049330e-01
7.967030e-01, 1.052380e-01
8.010120e-01, 1.055420e-01
8.053510e-01, 1.058470e-01
8.097180e-01, 1.061520e-01
8.141150e-01, 1.064580e-01
8.185410e-01, 1.067640e-01
8.229960e-01, 1.070700e-01
8.274810e-01, 1.073760e-01
8.319960e-01, 1.076830e-01
8.365410e-01, 1.079900e-01
8.411160e-01, 1.082970e-01
8.457210e-01, 1.086050e-01
8.503580e-01, 1.089130e-01
8.550250e-01, 1.092210e-01
8.597240e-01, 1.095300e-01
8.644530e-01, 1.098380e-01
8.692140e-01, 1.101480e-01
8.740070e-01, 1.104570e-01
8.788320e-01, 1.107670e-01
8.836890e-01, 1.110770e-01
8.885790e-01, 1.113870e-01
8.935010e-01, 1.116980e-01
8.984560e-01, 1.120090e-01
9.034430e-01, 1.123210e-01
9.084650e-01, 1.126320e-01
9.135190e-01, 1.129440e-01
9.186070e-01, 1.132570e-01
9.237290e-01, 1.135690e-01
9.288860e-01, 1.138820e-01
9.340760e-01, 1.141960e-01
9.393010e-01, 1.145090e-01
9.445610e-01, 1.148230e-01
9.498570e-01, 1.151370e-01
9.551870e-01, 1.154520e-01
9.605530e-01, 1.157670e-01
9.659540e-01, 1.160820e-01
9.713920e-01, 1.163980e-01
9.768660e-01, 1.167130e-01
9.823760e-01, 1.170300e-01
9.879230e-01, 1.173460e-01
9.935080e-01, 1.176630e-01
9.991290e-01, 1.179800e-01
1.004790e+00, 1.182980e-01
1.010480e+00, 1.186160e-01
1.016220e+00, 1.189340e-01
1.021990e+00, 1.192520e-01
1.027800e+00, 1.195710e-01
1.033650e+00, 1.198900e-01
1.039540e+00, 1.202100e-01
1.045470e+00, 1.205300e-01
1.051440e+00, 1.208500e-01
1.057440e+00, 1.211710e-01
1.063490e+00, 1.214920e-01
1.069580e+00, 1.218130e-01
1.075710e+00, 1.221350e-01
1.081880e+00, 1.224560e-01
1.088090e+00, 1.227790e-01
1.094340e+00, 1.231010e-01
1.100630e+00, 1.234240e-01
1.106970e+00, 1.237480e-01
1.113340e+00, 1.240720e-01
1.119760e+00, 1.243960e-01
1.126230e+00, 1.247200e-01
1.132730e+00, 1.250450e-01
1.139280e+00, 1.253700e-01
1.145870e+00, 1.256960e-01
1.152510e+00, 1.260210e-01
1.159190e+00, 1.263480e-01
1.165920e+00, 1.266740e-01
1.172690e+00, 1.270010e-01
1.179500e+00, 1.273290e-01
1.186360e+00, 1.276560e-01
1.193270e+00, 1.279840e-01
1.200220e+00, 1.283130e-01
1.207220e+00, 1.286420e-01
1.214270e+00, 1.289710e-01
1.221360e+00, 1.293000e-01
1.228500e+00, 1.296300e-01
1.235690e+00, 1.299610e-01
1.242920e+00, 1.302910e-01
1.250200e+00, 1.306220e-01
1.257540e+00, 1.309540e-01
1.264920e+00, 1.312860e-01
1.272350e+00, 1.316180e-01
1.279830e+00, 1.319510e-01
1.287360e+00, 1.322840e-01
1.294940e+00, 1.326170e-01
1.302570e+00, 1.329510e-01
1.310250e+00, 1.332850e-01
1.317980e+00, 1.336200e-01
1.325760e+00, 1.339550e-01
1.333600e+00, 1.342900e-01
1.341480e+00, 1.346260e-01
1.349430e+00, 1.349620e-01
1.357420e+00, 1.352980e-01
1.365460e+00, 1.356350e-01
1.373560e+00, 1.359730e-01
1.381720e+00, 1.363110e-01
1.389930e+00, 1.366490e-01
1.398190e+00, 1.369870e-01
1.406510e+00, 1.373260e-01
1.414880e+00, 1.376660e-01
1.423310e+00, 1.380060e-01
1.431800e+00, 1.383460e-01
1.440340e+00, 1.386870e-01
1.448940e+00, 1.390280e-01
1.457590e+00, 1.393690e-01
1.466310e+00, 1.397110e-01
1.475080e+00, 1.400530e-01
1.483910e+00, 1.403960e-01
1.492800e+00, 1.407390e-01
1.501750e+00, 1.410830e-01
1.510760e+00, 1.414270e-01
1.519830e+00, 1.417720e-01
1.528950e+00, 1.421170e-01
1.538140e+00, 1.424620e-01
1.547390e+00, 1.428080e-01
1.556710e+00, 1.431540e-01
1.566080e+00, 1.435010e-01
1.575520e+00, 1.438480e-01
1.585020e+00, 1.441950e-01
1.594580e+00, 1.445430e-01
1.604210e+00, 1.448920e-01
1.613900e+00, 1.452410e-01
1.623660e+00, 1.455900e-01
1.633480e+00, 1.459400e-01
1.643360e+00, 1.462900e-01
1.653310e+00, 1.466410e-01
1.663330e+00, 1.469920e-01
1.673420e+00, 1.473430e-01
1.683570e+00, 1.476950e-01
1.693790e+00, 1.480480e-01
1.704080e+00, 1.484010e-01
1.714430e+00, 1.487540e-01
1.724860e+00, 1.491080e-01
1.735360e+00, 1.494630e-01
1.745920e+00, 1.498180e-01
1.756560e+00, 1.501730e-01
1.767260e+00, 1.505290e-01
1.778040e+00, 1.508850e-01
1.788890e+00, 1.512420e-01
1.799810e+00, 1.515990e-01
1.810810e+00, 1.519570e-01
1.821870e+00, 1.523150e-01
1.833020e+00, 1.526730e-01
1.844230e+00, 1.530330e-01
1.855520e+00, 1.533920e-01
1.866890e+00, 1.537520e-01
1.878330e+00, 1.541130e-01
1.889850e+00, 1.544740e-01
1.901440e+00, 1.548360e-01
1.913110e+00, 1.551980e-01
1.924860e+00, 1.555610e-01
1.936690e+00, 1.559240e-01
1.948600e+00, 1.562870e-01
1.960580e+00, 1.566510e-01
1.972650e+00, 1.570160e-01
1.984800e+00, 1.573810e-01
1.997020e+00, 1.577470e-01
2.009330e+00, 1.581130e-01
2.021720e+00, 1.584790e-01
2.034200e+00, 1.588470e-01
2.046750e+00, 1.592140e-01
2.059390e+00, 1.595820e-01
2.072120e+00, 1.599510e-01
2.084930e+00, 1.603200e-01
2.097820e+00, 1.606900e-01
2.110800e+00, 1.610600e-01
2.123870e+00, 1.614310e-01
2.137020e+00, 1.618030e-01
2.150270e+00, 1.621750e-01
2.163600e+00, 1.625470e-01
2.177020e+00, 1.629200e-01
2.190520e+00, 1.632930e-01
2.204120e+00, 1.636670e-01
2.217810e+00, 1.640420e-01
2.231590e+00, 1.644170e-01
2.245460e+00, 1.647930e-01
2.259430e+00, 1.651690e-01
2.273490e+00, 1.655460e-01
2.287640e+00, 1.659230e-01
2.301880e+00, 1.663010e-01
2.316220e+00, 1.666790e-01
2.330660e+00, 1.670580e-01
2.345190e+00, 1.674380e-01
2.359820e+00, 1.678180e-01
2.374550e+00, 1.681990e-01
2.389370e+00, 1.685800e-01
2.404290e+00, 1.689610e-01
2.419320e+00, 1.693440e-01
2.434440e+00, 1.697270e-01
2.449660e+00, 1.701100e-01
2.464990e+00, 1.704940e-01
2.480420e+00, 1.708790e-01
2.495950e+00, 1.712640e-01
2.511580e+00, 1.716500e-01
2.527320e+00, 1.720370e-01
2.543160e+00, 1.724240e-01
2.559110e+00, 1.728110e-01
2.575170e+00, 1.731990e-01
2.591330e+00, 1.735880e-01
2.607600e+00, 1.739780e-01
2.623970e+00, 1.743680e-01
2.640460e+00, 1.747580e-01
2.657060e+00, 1.751490e-01
2.673770e+00, 1.755410e-01
2.690580e+00, 1.759330e-01
2.707520e+00, 1.763260e-01
2.724560e+00, 1.767200e-01
2.741720e+00, 1.771140e-01
2.758990e+00, 1.775090e-01
2.776370e+00, 1.779040e-01
2.793880e+00, 1.783010e-01
2.811500e+00, 1.786970e-01
2.829230e+00, 1.790940e-01
2.847090e+00, 1.794920e-01
2.865060e+00, 1.798910e-01
2.883160e+00, 1.802900e-01
2.901370e+00, 1.806900e-01
2.919710e+00, 1.810900e-01
2.938160e+00, 1.814910e-01
2.956740e+00, 1.818930e-01
2.975450e+00, 1.822960e-01
2.994280e+00, 1.826990e-01
3.013230e+00, 1.831020e-01
3.032310e+00, 1.835070e-01
3.051520e+00, 1.839120e-01
3.070860e+00, 1.843170e-01
3.090320e+00, 1.847240e-01
3.109920e+00, 1.851310e-01
3.129640e+00, 1.855380e-01
3.149500e+00, 1.859470e-01
3.169490e+00, 1.863550e-01
3.189610e+00, 1.867650e-01
3.209870e+00, 1.871750e-01
3.230260e+00, 1.875860e-01
3.250790e+00, 1.879980e-01
3.271450e+00, 1.884100e-01
3.292250e+00, 1.888230e-01
3.313190e+00, 1.892370e-01
3.334270e+00, 1.896510e-01
3.355490e+00, 1.900660e-01
3.376860e+00, 1.904820e-01
3.398360e+00, 1.908980e-01
3.420010e+00, 1.913150e-01
3.441800e+00, 1.917330e-01
3.463740e+00, 1.921520e-01
3.485820e+00, 1.925710e-01
3.508050e+00, 1.929910e-01
3.530430e+00, 1.934110e-01
3.552960e+00, 1.938330e-01
3.575630e+00, 1.942550e-01
3.598460e+00, 1.946770e-01
3.621440e+00, 1.951010e-01
3.644580e+00, 1.955250e-01
3.667870e+00, 1.959500e-01
3.691310e+00, 1.963760e-01
3.714910e+00, 1.968020e-01
3.738670e+00, 1.972290e-01
3.762580e+00, 1.976570e-01
3.786660e+00, 1.980860e-01
3.810890e+00, 1.985150e-01
3.835290e+00, 1.989450e-01
3.859850e+00, 1.993760e-01
3.884570e+00, 1.998070e-01
3.909460e+00, 2.002400e-01
3.934510e+00, 2.006730e-01
3.959730e+00, 2.011070e-01
3.985120e+00, 2.015410e-01
4.010680e+00, 2.019770e-01
4.036410e+00, 2.024130e-01
4.062310e+00, 2.028490e-01
4.088380e+00, 2.032870e-01
4.114630e+00, 2.037250e-01
4.141050e+00, 2.041650e-01
4.167640e+00, 2.046050e-01
4.194420e+00, 2.050450e-01
4.221370e+00, 2.054870e-01
4.248500e+00, 2.059290e-01
4.275820e+00, 2.063720e-01
4.303310e+00, 2.068160e-01
4.330990e+00, 2.072600e-01
4.358850e+00, 2.077060e-01
4.386900e+00, 2.081520e-01
4.415140e+00, 2.085990e-01
4.443560e+00, 2.090470e-01
4.472170e+00, 2.094950e-01
4.500980e+00, 2.099450e-01
4.529970e+00, 2.103950e-01
4.559160e+00, 2.108460e-01
4.588540e+00, 2.112980e-01
4.618120e+00, 2.117500e-01
4.647900e+00, 2.122040e-01
4.677880e+00, 2.126580e-01
4.708050e+00, 2.131130e-01
4.738430e+00, 2.135690e-01
4.769000e+00, 2.140260e-01
4.799780e+00, 2.144840e-01
4.830770e+00, 2.149420e-01
4.861970e+00, 2.154020e-01
4.893370e+00, 2.158620e-01
4.924980e+00, 2.163230e-01
4.956800e+00, 2.167850e-01
4.988830e+00, 2.172480e-01
5.021080e+00, 2.177120e-01
5.053540e+00, 2.181760e-01
5.086220e+00, 2.186420e-01
5.119110e+00, 2.191080e-01
5.152230e+00, 2.195750e-01
5.185560e+00, 2.200430e-01
5.219120e+00, 2.205120e-01
5.252900e+00, 2.209820e-01
5.286910e+00, 2.214520e-01
5.321140e+00, 2.219240e-01
5.355600e+00, 2.223960e-01
5.390300e+00, 2.228690e-01
5.425220e+00, 2.233440e-01
5.460370e+00, 2.238190e-01
5.495760e+00, 2.242950e-01
5.531390e+00, 2.247710e-01
5.567250e+00, 2.252490e-01
5.603350e+00, 2.257280e-01
5.639690e+00, 2.262070e-01
5.676280e+00, 2.266880e-01
5.713100e+00, 2.271690e-01
5.750180e+00, 2.276520e-01
5.787500e+00, 2.281350e-01
5.825070e+00, 2.286190e-01
5.862890e+00, 2.291040e-01
5.900960e+00, 2.295900e-01
5.939280e+00, 2.300770e-01
5.977870e+00, 2.305650e-01
6.016700e+00, 2.310540e-01
6.055800e+00, 2.315440e-01
6.095160e+00, 2.320340e-01
6.134780e+00, 2.325260e-01
6.174660e+00, 2.330190e-01
6.214810e+00, 2.335120e-01
6.255230e+00, 2.340070e-01
6.295910e+00, 2.345020e-01
6.336870e+00, 2.349990e-01
6.378100e+00, 2.354960e-01
6.419600e+00, 2.359950e-01
6.461390e+00, 2.364940e-01
6.503450e+00, 2.369950e-01
6.545790e+00, 2.374960e-01
6.588410e+00, 2.379980e-01
6.631320e+00, 2.385020e-01
6.674510e+00, 2.390060e-01
6.717990e+00, 2.395110e-01
6.761760e+00, 2.400180e-01
6.805820e+00, 2.405250e-01
6.850180e+00, 2.410340e-01
6.894830e+00, 2.415430e-01
6.939780e+00, 2.420540e-01
6.985020e+00, 2.425650e-01
7.030570e+00, 2.430780e-01
7.076430e+00, 2.435920e-01
7.122590e+00, 2.441060e-01
7.169050e+00, 2.446220e-01
7.215830e+00, 2.451390e-01
7.262920e+00, 2.456560e-01
7.310320e+00, 2.461750e-01
7.358040e+00, 2.466950e-01
7.406070e+00, 2.472160e-01
7.454430e+00, 2.477380e-01
7.503100e+00, 2.482610e-01
7.552110e+00, 2.487850e-01
7.601440e+00, 2.493100e-01
7.651090e+00, 2.498360e-01
7.701080e+00, 2.503630e-01
7.751400e+00, 2.508920e-01
7.802060e+00, 2.514210e-01
7.853050e+00, 2.519520e-01
7.904390e+00, 2.524830e-01
7.956070e+00, 2.530160e-01
8.008090e+00, 2.535490e-01
8.060450e+00, 2.540840e-01
8.113170e+00, 2.546200e-01
8.166240e+00, 2.551570e-01
8.219660e+00, 2.556950e-01
8.273440e+00, 2.562340e-01
8.327570e+00, 2.567750e-01
8.382070e+00, 2.573160e-01
8.436930e+00, 2.578590e-01
8.492150e+00, 2.584020e-01
8.547750e+00, 2.589470e-01
8.603710e+00, 2.594930e-01
8.660050e+00, 2.600400e-01
8.716760e+00, 2.605880e-01
8.773850e+00, 2.611380e-01
8.831320e+00, 2.616880e-01
8.889180e+00, 2.622400e-01
8.947420e+00, 2.627920e-01
9.006040e+00, 2.633460e-01
9.065060e+00, 2.639010e-01
9.124470e+00, 2.644570e-01
9.184280e+00, 2.650150e-01
9.244490e+00, 2.655730e-01
9.305090e+00, 2.661330e-01
9.366100e+00, 2.666940e-01
9.427520e+00, 2.672560e-01
9.489350e+00, 2.678190e-01
9.551590e+00, 2.683830e-01
9.614240e+00, 2.689490e-01
9.677310e+00, 2.695160e-01
9.740800e+00, 2.700840e-01
9.804720e+00, 2.706530e-01
9.869060e+00, 2.712230e-01
9.933830e+00, 2.717950e-01
9.999030e+00, 2.723680e-01
1.006470e+01, 2.729420e-01
1.013070e+01, 2.735170e-01
1.019730e+01, 2.740930e-01
1.026420e+01, 2.746710e-01
1.033160e+01, 2.752500e-01
1.039950e+01, 2.758300e-01
1.046780e+01, 2.764120e-01
1.053650e+01, 2.769940e-01
1.060570e+01, 2.775780e-01
1.067540e+01, 2.781640e-01
1.074560e+01, 2.787500e-01
1.081620e+01, 2.793380e-01
1.088730e+01, 2.799270e-01
1.095880e+01, 2.805170e-01
1.103080e+01, 2.811090e-01
1.110340e+01, 2.817010e-01
1.117630e+01, 2.822950e-01
1.124980e+01, 2.828910e-01
1.132380e+01, 2.834870e-01
1.139830e+01, 2.840850e-01
1.147320e+01, 2.846840e-01
1.154870e+01, 2.852850e-01
1.162460e+01, 2.858860e-01
1.170110e+01, 2.864890e-01
1.177810e+01, 2.870930e-01
1.185560e+01, 2.876990e-01
1.193360e+01, 2.883060e-01
1.201210e+01, 2.889140e-01
1.209120e+01, 2.895230e-01
1.217080e+01, 2.901340e-01
1.225090e+01, 2.907460e-01
1.233150e+01, 2.913590e-01
1.241270e+01, 2.919740e-01
1.249440e+01, 2.925900e-01
1.257670e+01, 2.932070e-01
1.265950e+01, 2.938250e-01
1.274280e+01, 2.944450e-01
1.282680e+01, 2.950660e-01
1.291120e+01, 2.956890e-01
1.299630e+01, 2.963130e-01
1.308190e+01, 2.969380e-01
1.316810e+01, 2.975640e-01
1.325480e+01, 2.981920e-01
1.334220e+01, 2.988210e-01
1.343010e+01, 2.994510e-01
1.351860e+01, 3.000830e-01
1.360770e+01, 3.007160e-01
1.369740e+01, 3.013500e-01
1.378760e+01, 3.019860e-01
1.387850e+01, 3.026230e-01
1.397000e+01, 3.032610e-01
1.406210e+01, 3.039010e-01
1.415480e+01, 3.045420e-01
1.424820e+01, 3.051840e-01
1.434210e+01, 3.058280e-01
1.443670e+01, 3.064730e-01
1.453190e+01, 3.071190e-01
1.462770e+01, 3.077670e-01
1.472420e+01, 3.084150e-01
1.482130e+01, 3.090660e-01
1.491910e+01, 3.097170e-01
1.501750e+01, 3.103700e-01
1.511660e+01, 3.110250e-01
1.521640e+01, 3.116800e-01
1.531680e+01, 3.123370e-01
1.541780e+01, 3.129950e-01
1.551960e+01, 3.136550e-01
1.562200e+01, 3.143160e-01
1.572510e+01, 3.149780e-01
1.582890e+01, 3.156410e-01
1.593340e+01, 3.163060e-01
1.603860e+01, 3.169720e-01
1.614450e+01, 3.176400e-01
1.625110e+01, 3.183080e-01
1.635840e+01, 3.189790e-01
1.646640e+01, 3.196500e-01
1.657510e+01, 3.203220e-01
1.668460e+01, 3.209960e-01
1.679480e+01, 3.216710e-01
1.690570e+01, 3.223480e-01
1.701730e+01, 3.230260e-01
1.712970e+01, 3.237050e-01
1.724290e+01, 3.243850e-01
1.735680e+01, 3.250660e-01
1.747150e+01, 3.257490e-01
1.758690e+01, 3.264330e-01
1.770310e+01, 3.271180e-01
1.782010e+01, 3.278050e-01
1.793780e+01, 3.284930e-01
1.805640e+01, 3.291820e-01
1.817570e+01, 3.298720e-01
1.829580e+01, 3.305630e-01
1.841680e+01, 3.312560e-01
1.853850e+01, 3.319490e-01
1.866100e+01, 3.326440e-01
1.878440e+01, 3.333400e-01
1.890860e+01, 3.340380e-01
1.903360e+01, 3.347360e-01
1.915940e+01, 3.354360e-01
1.928610e+01, 3.361360e-01
1.941370e+01, 3.368380e-01
1.954200e+01, 3.375410e-01
1.967130e+01, 3.382450e-01
1.980140e+01, 3.389500e-01
1.993230e+01, 3.396560e-01
2.006410e+01, 3.403630e-01
2.019690e+01, 3.410710e-01
2.033050e+01, 3.417800e-01
